x,theta,dx,dtheta,t
0,0.7,0,0,0
6.23E-05,0.699185686674168,0.0122508092882867,-0.16007534302349,0.01
0.000240959181065027,0.696853253077842,0.0232765679882109,-0.303607218669342,0.02
0.000523998066399632,0.693166625372435,0.0331398630307606,-0.431074619874746,0.03
0.000900074172565504,0.688283544040756,0.0419019986187447,-0.543096450809257,0.04
0.00135852096183556,0.682354322124868,0.0496228872480406,-0.640411588541602,0.05
0.0018891884227412,0.675522851427183,0.0563629331117062,-0.723864027989565,0.06
0.00248257897272611,0.667922555303176,0.0621774356384062,-0.794345884510183,0.07
0.00312975672192643,0.659677679266631,0.0671210338720679,-0.852766038690761,0.08
0.00382230266421271,0.650903948031608,0.0712490682970445,-0.900048482652827,0.09
0.00455231467718994,0.64170856551244,0.0746175808381157,-0.937132320052126,0.1
0.00531236840479187,0.632190793571489,0.0772838443189229,-0.964975779332309,0.11
0.0060948054812775,0.622451982003729,0.0793132086445158,-0.98458637456413,0.12
0.00689375806292474,0.612565023561773,0.0807462120225259,-0.996718824378841,0.13
0.00770417934975951,0.602590104005543,0.0816166498077452,-1.00203741417666,0.14
0.00852119794489426,0.592584488417742,0.081961343442614,-1.00119683132169,0.15
0.00934011785452798,0.58260252120385,0.081820140457221,-0.99484216514193,0.16
0.0101564184879462,0.572695626092129,0.0812359144693026,-0.983608906929271,0.17
0.0109657546575209,0.562912306133619,0.0802545651842437,-0.968122949939492,0.18
0.0117639565787109,0.553298143702141,0.0789250183950771,-0.949000589392262,0.19
0.012547029870061,0.543895800494292,0.077299225982484,-0.926848522471142,0.2
0.0133112809215347,0.534743615610337,0.0754294845475458,-0.902246095340715,0.21
0.0140550696020111,0.525855823972293,0.0733315425504307,-0.875493961089884,0.22
0.0147767743895285,0.51724560131858,0.0710269495550528,-0.846893629937732,0.23
0.0154746082727674,0.508928003616725,0.0685438707120613,-0.816773644619427,0.24
0.0161469798190211,0.500916012134105,0.0659090767551404,-0.785438801614274,0.25
0.016792493174195,0.493220533437949,0.0631479440010102,-0.753170151145711,0.26
0.0174099480628074,0.485850399395341,0.060284454349426,-0.720224997181318,0.27
0.017998339787989,0.478812367173213,0.0573411952831788,-0.686836897432805,0.28
0.0185568578179013,0.472111135495683,0.0543393541079218,-0.653215726077965,0.29
0.019084860142358,0.465749709305075,0.0512977674388598,-0.619549031228547,0.3
0.0195821561062019,0.459726344168074,0.0482325563757424,-0.585992489011938,0.31
0.0200487585270049,0.454037291989373,0.0451586947446784,-0.55268411882602,0.32
0.0204847558875835,0.448678236772009,0.0420900509496849,-0.519750251490541,0.33
0.020890312335998,0.443644294617357,0.0390393879726869,-0.487305529247118,0.34
0.0212656676855531,0.438930013725133,0.0360183633735177,-0.45545290575924,0.35
0.0216111374147976,0.434529374393396,0.0330375292899189,-0.424283646112261,0.36
0.0219271126675248,0.430435789018543,0.0301063324375398,-0.393877326813405,0.37
0.0222140602527718,0.426642102095313,0.0272331141099381,-0.364301835791767,0.38
0.0224725226448202,0.423140590216786,0.0244251101785798,-0.335613372398309,0.39
0.0227031179831955,0.419922962074383,0.0216884510928388,-0.307856447405863,0.4
0.0229064124210082,0.41698149932953,0.0190293523395925,-0.281079797180828,0.41
0.0230832135293129,0.414306044083145,0.0164525883552141,-0.255319490017555,0.42
0.0232345549751656,0.411884350255171,0.0139609125336801,-0.230588790539682,0.43
0.0233614485360747,0.409704511251056,0.0115566946777333,-0.206897993568431,0.44
0.0234648840734308,0.407754960214036,0.00924192119979886,-0.184254426667918,0.45
0.0235458295325061,0.406024470025137,0.0070181951219844,-0.16266245014516,0.46
0.0236052309424549,0.404502153303173,0.00488673607607975,-0.142123457050067,0.47
0.0236440124163132,0.403177462404751,0.00284838030355707,-0.122635873175451,0.48
0.0236630761509989,0.402040189424263,0.00090358065557089,-0.104195157057018,0.49
0.0236633024273119,0.401080466193893,-0.000947593407041997,-0.086793799973371,0.5
0.0236455496099339,0.400288764283615,-0.0027054558137624,-0.070421325946013,0.51
0.0236106541474284,0.399655895001191,-0.0043707038843888,-0.0550642917393428,0.52
0.0235594305722411,0.399173009392171,-0.00594441832903738,-0.0407062868606564,0.53
0.0234926715006991,0.398831598239898,-0.00742806324814203,-0.0273279335601466,0.54
0.0234113138510538,0.398621501035871,-0.00882332275422598,-0.0149061204448438,0.55
0.0233164021621976,0.398531324692579,-0.0101323392697423,-0.00341196303402871,0.56
0.0232088188368658,0.398551610720383,-0.0113576046105234,0.00718464117369576,0.57
0.023089411309144,0.398673296682516,-0.0125016205086735,0.0169135380933183,0.58
0.0229589922132659,0.398887714169791,-0.0135668983512049,0.0258043168886449,0.59
0.0228183393836123,0.399186588800595,-0.0145559591800381,0.0338863099722986,0.6
0.0226681958547121,0.39956204022089,-0.0154713336920015,0.0411885930057195,0.61
0.0225092698612412,0.400006582104216,-0.0163155622388318,0.0477399848991648,0.62
0.0223422348380237,0.400513122151689,-0.0170911948271736,0.0535690478117089,0.63
0.022167732716059,0.401074924667148,-0.0178007981512019,0.0587042032904943,0.64
0.0219864236578098,0.401685050987114,-0.0184472014655919,0.0631768870290253,0.65
0.0217989431293534,0.402336845020493,-0.0190334974561715,0.0670210419397973,0.66
0.0216058878526338,0.403024075378611,-0.0195626978381847,0.070269553394819,0.67
0.0214078230369089,0.403740851528474,-0.0200377125530626,0.0729541463903473,0.68
0.0212052823787499,0.404481623792765,-0.0204613497684233,0.0751053855468873,0.69
0.0209987680620416,0.405241183349842,-0.0208363158780723,0.0767526751091926,0.7
0.0207887507579826,0.406014662233743,-0.021165215502002,0.077924258946265,0.71
0.0205756696250851,0.406797533334182,-0.0214505514863922,0.0786472205513548,0.72
0.0203599323091746,0.40758561039655,-0.0216947249036097,0.0789474830419602,0.73
0.020141928623717,0.4083748992673,-0.0219000871785616,0.0788504248223033,0.74
0.019922051583907,0.409161372969948,-0.0220692076349507,0.0783838238138242,0.75
0.0197006489865539,0.409941497475963,-0.0222046435132448,0.0775752166784397,0.76
0.0194780458311791,0.410711983984905,-0.0223088260889305,0.0764507969383458,0.77
0.0192545457977589,0.411469772764236,-0.022384061682133,0.0750354324331556,0.78
0.0190304312467244,0.412212033149318,-0.0224325316576165,0.0733526653198995,0.79
0.0188059632189617,0.412936163543416,-0.0224562924247839,0.071424712073025,0.8
0.0185813814358118,0.413639791417697,-0.0224572754376769,0.069272463484397,0.81
0.0183569042990705,0.41432077331123,-0.0224372871949759,0.0669154846632973,0.82
0.0181327288909885,0.414977194830983,-0.0223980092400002,0.0643720150364251,0.83
0.0179090309742715,0.415607370651829,-0.022340998160708,0.0616589683478969,0.84
0.0176859856216128,0.416209622484959,-0.0222678189250314,0.0587933538984661,0.85
0.0174637660562489,0.416782301242615,-0.022180219136506,0.0557940837009827,0.86
0.0172424927170294,0.417324333551319,-0.0220797365527563,0.0526777955873321,0.87
0.0170222759450496,0.417834754644188,-0.0219678147740967,0.0494601251045363,0.88
0.0168032170836888,0.418312696421533,-0.0218458083425507,0.0461557603750084,0.89
0.0165854084786098,0.418757387450859,-0.0217149827418497,0.0427784420965531,0.9
0.0163689334777597,0.419168152966868,-0.021576514397434,0.0393409635423667,0.91
0.0161538664313692,0.419544414871453,-0.0214314906764523,0.0358551705610366,0.92
0.015940272691953,0.419885691733706,-0.0212809098877617,0.032331961576542,0.93
0.0157282086143096,0.42019159878991,-0.0211256812819279,0.0287812875882534,0.94
0.0155177215555214,0.420461847943546,-0.0209666250512251,0.0252121521709329,0.95
0.0153088498749547,0.420696247765285,-0.0208044723296358,0.0216326114747339,0.96
0.0151016236049971,0.420894696302117,-0.0206398716916543,0.0180498426044871,0.97
0.0148960873302159,0.421056940674599,-0.0204736908175439,0.0144732804872847,0.98
0.0146922476252802,0.421183149305566,-0.0203066465926831,0.0109106550351815,0.99
0.0144900904604346,0.421273712936991,-0.0201392659681522,0.0073676675491894,1
0.0142896015162427,0.421329024278678,-0.0199720403321601,0.00384963385376031,1.01
0.0140907661835865,0.421349478008268,-0.0198054255100445,0.000361484296786434,1.02
0.0138935695636672,0.421335470771236,-0.019639841764272,-0.00309223625039983,1.03
0.0136979964680047,0.421287401180892,-0.019475673794438,-0.00650736839302593,1.04
0.0135040314184375,0.42120566981838,-0.0193132707372665,-0.00988013821287907,1.05
0.0133116586471233,0.42109067923268,-0.0191529461666106,-0.0132071572683063,1.06
0.0131208620965382,0.420942833940608,-0.0189949780934519,-0.0164854225942143,1.07
0.0129316254194774,0.420762540426812,-0.0188396089659012,-0.0197123167020699,1.08
0.0127439319790549,0.420550207143777,-0.0186870456691976,-0.0228856075798994,1.09
0.0125577648487034,0.420306244511822,-0.0185374595257093,-0.026003448692289,1.1
0.0123731068112768,0.420031064930031,-0.0183909863115545,-0.0290643788092573,1.11
0.0121899299306018,0.41972520432742,-0.0182478114358589,-0.032066468602976,1.12
0.0120081871592627,0.419389409675335,-0.0181080389721643,-0.0350087316811322,1.13
0.0118278336185289,0.419024397706702,-0.0179716607645492,-0.037891363334212,1.14
0.0116488266023286,0.418630860277004,-0.0178386650106524,-0.0407145988429212,1.15
0.0114711255772485,0.418209464364286,-0.0177090362616732,-0.0434787134781847,1.16
0.011294692182534,0.417760852069152,-0.0175827554223713,-0.0461840225011474,1.17
0.0111194902300888,0.417285640614765,-0.0174597997510669,-0.0488308811631731,1.18
0.0109454857044754,0.416784422346848,-0.0173401428596405,-0.0514196847058451,1.19
0.0107726467629149,0.416257764733683,-0.0172237547135333,-0.0539508683609663,1.2
0.0106009437352868,0.415706210366112,-0.0171106016317467,-0.056424907350559,1.21
0.0104303491241293,0.415130276957535,-0.0170006462868424,-0.0588423168868647,1.22
0.0102608376046391,0.414530457343915,-0.016893847704943,-0.0612036521723447,1.23
0.0100923860246715,0.413907219483771,-0.016790161265731,-0.0635095083996793,1.24
0.0099249734047404,0.413261006458183,-0.0166895387024498,-0.0657605207517686,1.25
0.00975857271439947,0.412592328544216,-0.0165919246079332,-0.06795741691554,1.26
0.00959314354741518,0.411901841423821,-0.0164971965509856,-0.0701016726243863,1.27
0.00942865383656422,0.4111901042212,-0.0164051972168985,-0.0721951245097495,1.28
0.009265073537497,0.410457653039272,-0.0163157764301155,-0.0742395297547416,1.29
0.00910237446330088,0.409705002834189,-0.0162287914298593,-0.0762365634345271,1.3
0.0089405302845002,0.408932647415338,-0.0161441068701321,-0.0781878185163237,1.31
0.00877951652905624,0.40814105944534,-0.0160615948197151,-0.0800948058594012,1.32
0.00861931058236728,0.407330690440049,-0.0159811347621689,-0.0819589542150824,1.33
0.00845989168726855,0.406501970768554,-0.0159026135958334,-0.0837816102267426,1.34
0.00830124094403224,0.405655309653177,-0.0158259256338276,-0.08556403842981,1.35
0.00814334131036752,0.404791095169474,-0.0157509726040499,-0.0873074212517653,1.36
0.00798617760142052,0.403909694246235,-0.0156776636491778,-0.0890128590121418,1.37
0.00782973648977433,0.403011452665486,-0.0156059153266681,-0.0906813699225257,1.38
0.00767400650544902,0.402096695062483,-0.015535651608757,-0.0923138900865557,1.39
0.0075189780359016,0.40116572492572,-0.0154668038824599,-0.0939112734999231,1.4
0.00736464296695152,0.400218828580438,-0.0153993102496813,-0.0954743004719997,1.41
0.00721097831642221,0.399256455486806,-0.0153330664408879,-0.0970042425014357,1.42
0.00705796705857463,0.398278984844992,-0.0152679349411713,-0.0985027046420349,1.43
0.00690560099865899,0.397286696747216,-0.01520379281329,-0.0999711124638883,1.44
0.00675387250675221,0.396279864524458,-0.0151405244088874,-0.101410812893585,1.45
0.00660277451775787,0.395258754746458,-0.0150780213684919,-0.102823074214213,1.46
0.00645230053140625,0.39422362722171,-0.0150161826215171,-0.104209086065358,1.47
0.00630244461225431,0.39317473499747,-0.0149549143862611,-0.105569959443106,1.48
0.00615320138968569,0.39211232435975,-0.0148941301699075,-0.10690672670004,1.49
0.00600456605791071,0.391036634833321,-0.0148337507685245,-0.108220341545241,1.5
0.00585653437596636,0.389947899181711,-0.0147737042670655,-0.10951167904429,1.51
0.00570910266771634,0.388846343407207,-0.0147139260393688,-0.110781535619266,1.52
0.00556226782185102,0.387732186750854,-0.0146543587481577,-0.112030629048746,1.53
0.00541602729188744,0.386605641692455,-0.0145949523450405,-0.113259598467807,1.54
0.00527037909616934,0.385466913950572,-0.0145356640705104,-0.114469004368023,1.55
0.00512532181786713,0.384316202482523,-0.0144764584539456,-0.115659328597466,1.56
0.00498085460497791,0.383153699484387,-0.0144173073136094,-0.116830974360709,1.57
0.00483697717032546,0.381979590390998,-0.0143581897566499,-0.117984266218822,1.58
0.00469368979156025,0.38079405387595,-0.0142990921791003,-0.119119450089372,1.59
0.00455099331115941,0.379597261851595,-0.0142400082658788,-0.120236693246427,1.6
0.00440887490063868,0.378389533732754,-0.0141808959805744,-0.121336580579581,1.61
0.00426730141329951,0.377171405672868,-0.0141216189321864,-0.122420754432004,1.62
0.00412628394347116,0.375942930819627,-0.0140621393141877,-0.123489686572859,1.63
0.00398583554325968,0.374704140305114,-0.0140024287448932,-0.124543743747726,1.64
0.0038459684671797,0.373455073189041,-0.0139424611180351,-0.125583271289973,1.65
0.00370669417215448,0.372195776458753,-0.0138822126027632,-0.126608593120756,1.66
0.00356802331751584,0.370926305029228,-0.0138216616436447,-0.127620011749019,1.67
0.00342996576500423,0.369646721743075,-0.0137607889606645,-0.128617808271492,1.68
0.00329253057876869,0.368357097370537,-0.0136995775492248,-0.129602242372696,1.69
0.00315572602536686,0.367057510609487,-0.0136380126801455,-0.130573552324937,1.7
0.00301955957376499,0.365748048085431,-0.0135760818996637,-0.131531954988311,1.71
0.00288403789533792,0.364428804351508,-0.0135137750294344,-0.1324776458107,1.72
0.00274916686386908,0.363099881888489,-0.0134510841665298,-0.133410798827775,1.73
0.00261495155555053,0.361761391104775,-0.0133880036834398,-0.134331566662993,1.74
0.00248139624898291,0.360413450336402,-0.0133245302280715,-0.135240080527603,1.75
0.00234850442517546,0.359056185847038,-0.01326066272375,-0.136136450220636,1.76
0.00221627876754603,0.35768973182798,-0.0131964023692174,-0.137020764128916,1.77
0.00208472116192107,0.356314230398162,-0.0131317526386336,-0.137893089227052,1.78
0.00195383269653561,0.354929831604146,-0.0130667192815759,-0.138753471077441,1.79
0.00182361366203331,0.353536693420128,-0.0130013103230391,-0.139601933830268,1.8
0.00169406355146641,0.352134981747937,-0.0129355360634356,-0.140438480223508,1.81
0.00156518106029576,0.350724870417032,-0.0128694090785953,-0.14126309158292,1.82
0.0014369640863908,0.349306541184505,-0.0128029442197654,-0.142075727822054,1.83
0.00130940973002959,0.347880183735083,-0.0127361586136108,-0.142876327442246,1.84
0.00118251429389878,0.34644599568112,-0.0126690716622138,-0.14366480753262,1.85
0.0010562732830936,0.345004182562607,-0.0126017050430744,-0.14444106377009,1.86
0.000930681405117919,0.343554957847163,-0.0125340827091098,-0.145204970419353,1.87
0.000805732569884172,0.342098542930044,-0.0124662308886549,-0.145956380332899,1.88
0.000681420439427634,0.340635159793363,-0.0123981649043469,-0.146695260533483,1.89
0.000557751828308048,0.33916486556059,-0.0123297041900005,-0.147423581062722,1.9
0.000434739999542721,0.33768765904089,-0.0122608053332622,-0.148141871586271,1.91
0.00031239610107389,0.336203568246507,-0.0121914968932097,-0.148849919347215,1.92
0.000190730556446544,0.3347126278567,-0.0121218060520498,-0.149547527706937,1.93
6.98E-05,0.333214879217741,-0.0120517586151182,-0.150234516145109,1.94
-5.05E-05,0.331710370342912,-0.0119813790108795,-0.150910720259701,1.95
-0.000170102584895299,0.330199155912509,-0.0119106902909273,-0.151575991766974,1.96
-0.000288964966651638,0.328681297273841,-0.0118397141299841,-0.152230198501484,1.97
-0.000407107742800177,0.327156862441229,-0.0117684708259015,-0.152873224416083,1.98
-0.000524524836179381,0.325625926096006,-0.0116969792996598,-0.153504969581912,1.99
-0.000641210894024961,0.324088569586518,-0.0116252570953684,-0.154125350188409,2
-0.000757161287969873,0.322544880928123,-0.0115533203802656,-0.154734298543307,2.01
-0.000872372114044304,0.320994954803193,-0.0114811839447187,-0.15533176307263,2.02
-0.000986840192675704,0.31943889256111,-0.011408861202224,-0.155917708320698,2.03
-0.00110056306868875,0.317876802218271,-0.0113363641894065,-0.156492114950123,2.04
-0.00121353901130536,0.316308798458084,-0.0112637035660205,-0.157054979741812,2.05
-0.00132576701414472,0.31473500263097,-0.0111908886149489,-0.157606315594967,2.06
-0.00143724679522323,0.313155542754362,-0.0111179272422037,-0.158146151527081,2.07
-0.00154797879695456,0.311570553512706,-0.011044825976926,-0.158674532673943,2.08
-0.00165796418614958,0.309980176257461,-0.0109715899713856,-0.159191520289634,2.09
-0.00176720485401646,0.308384559007098,-0.0108982230009814,-0.159697191746533,2.1
-0.00187570341616057,0.306783856447099,-0.0108247274642412,-0.160191640535307,2.11
-0.00198346321258454,0.305178229929961,-0.0107511043828216,-0.160674976264922,2.12
-0.00209048830768824,0.303567847475193,-0.0106773534015085,-0.161147324662635,2.13
-0.0021967834902688,0.301952883769314,-0.0106034727882164,-0.161608827573997,2.14
-0.00230235427352055,0.300333520165859,-0.0105294594339889,-0.162059642962853,2.15
-0.00240720689503512,0.298709944685374,-0.0104553088529986,-0.162499944911344,2.16
-0.00251134831680132,0.297082352015417,-0.0103810151825469,-0.162929923619901,2.17
-0.00261478274419819,0.295450905480534,-0.0103065709871106,-0.163349776339031,2.18
-0.002717491580033,0.293815519184601,-0.0102319761086626,-0.163759555424461,2.19
-0.00281946686090132,0.292176224012662,-0.0101572457967022,-0.164159192727855,2.2
-0.00292070423118255,0.290533089211406,-0.0100823958938019,-0.164548625145069,2.21
-0.00302119968281429,0.288886186636533,-0.0100074414809465,-0.164927797815319,2.22
-0.00312094955529227,0.287235590752762,-0.00993239687753336,-0.165296664121178,2.23
-0.00321995053567038,0.285581378633826,-0.0098572756413723,-0.165655185688577,2.24
-0.00331819965856068,0.283923629962472,-0.0097820905686855,-0.166003332386804,2.25
-0.00341569430613335,0.282262427030463,-0.00970685369410761,-0.166341082328507,2.26
-0.00351243220811676,0.280597854738578,-0.0096315762906857,-0.166668421869691,2.27
-0.00360841144179742,0.27893000059661,-0.00955626886987927,-0.166985345609718,2.28
-0.00370363043201998,0.277258954723368,-0.00948094118156028,-0.167291856391311,2.29
-0.00379808795118728,0.275584809846675,-0.00940560221401309,-0.167587965300547,2.3
-0.00389178311926028,0.273907661303371,-0.00933026019393453,-0.167873691666865,2.31
-0.00398471540375812,0.272227607039309,-0.00925492258643383,-0.168149063063059,2.32
-0.00407688461975807,0.270544747609359,-0.00917959609503268,-0.168414115305282,2.33
-0.00416829092989558,0.268859186177407,-0.00910428666166519,-0.168668892453046,2.34
-0.00425893484436424,0.26717102851635,-0.00902899946667793,-0.16891344680922,2.35
-0.0043488172209158,0.265480383008106,-0.00895373892882986,-0.169147838920031,2.36
-0.00443793926486016,0.263787360643603,-0.0088785087052924,-0.169372137575065,2.37
-0.00452630252906537,0.262092075022787,-0.00880331169164943,-0.169586419807264,2.38
-0.00461390891395766,0.260394642354618,-0.00872815002189721,-0.16979077089293,2.39
-0.00470076066752138,0.258695181457073,-0.00865302506844449,-0.169985284351722,2.4
-0.00478686038529906,0.256993813757142,-0.0085779374421124,-0.170170061946658,2.41
-0.00487221101039137,0.255290663290832,-0.00850288699213455,-0.170345213684113,2.42
-0.00495681583345716,0.253585856703163,-0.00842787280615696,-0.17051085781382,2.43
-0.00504067849271339,0.251879523248172,-0.00835289321023809,-0.170667120828871,2.44
-0.00512380297393521,0.250171794788911,-0.00827794576884884,-0.170814137465715,2.45
