x,theta,dx,dtheta, t
0,0.7,0,0,0
6.13E-05,0.699199023844008,0.012256171167812,-0.160829826358039,0.01
0.000239001112809438,0.696879064901762,0.0232878802262635,-0.308561249756008,0.02
0.000521233257142528,0.693203715829218,0.0331585486403546,-0.445704482140153,0.03
0.000896679667551865,0.688331149164001,0.0419307334415128,-0.573965370701236,0.04
0.00135466307116736,0.682412605730746,0.0496659472815868,-0.694567110236983,0.05
0.00188511530136753,0.675591249066297,0.0564244987584467,-0.808422725679091,0.06
0.0024785645544975,0.66800137163752,0.062265351867547,-0.916232020775256,0.07
0.00312612133112074,0.659767919561188,0.0672460034571013,-1.01853489443646,0.08
0.00381946323635797,0.651006291406777,0.0714223775903444,-1.11573272897666,0.09
0.00455081880304164,0.641822362142642,0.074848735746391,-1.20807225345852,0.1
0.00531295049087923,0.632312683704206,0.0775776018211267,-1.29554915162639,0.11
0.00609913700459037,0.622564817368673,0.0796597009211,-1.37754028060483,0.12
0.00690315506407707,0.612657758696887,0.0811439109762414,-1.45109728524782,0.13
0.00771926075011418,0.60266242215601,0.0820772262311798,-1.50038829021393,0.14
0.00854217053981862,0.592642158901646,0.082504731709708,-1.48299423777432,0.15
0.00936704213727894,0.582653287095602,0.0824695877823563,-1.42505731450289,0.16
0.0101894551962051,0.572745619308624,0.0820130240028701,-1.36017484940527,0.17
0.0110053920232967,0.562962975908313,0.0811743414154563,-1.29508043433065,0.18
0.011811218343228,0.5533436768667,0.0799909225708113,-1.23127738935324,0.19
0.0126036641987071,0.543921007206192,0.0784982485249994,-1.16919822755794,0.2
0.0133798050519875,0.534723653433215,0.0767299221310889,-1.10896742626682,0.21
0.0141370431474876,0.525776109891734,0.0747176969689337,-1.0506001254673,0.22
0.0148730891887998,0.517099055106833,0.0724915112935077,-0.994068166423792,0.23
0.0155859443773506,0.508709698974454,0.0700795264166483,-0.939325894779002,0.24
0.0162738828542881,0.500622102167437,0.0675081689708541,-0.886321391665375,0.25
0.0169354345818266,0.492847469436781,0.0648021765368335,-0.835001704336173,0.26
0.0175693686952545,0.485394418644401,0.061984646148743,-0.785315358178025,0.27
0.0181746773521103,0.4782692274125,0.0590770852224231,-0.737213545328167,0.28
0.0187505601006344,0.471476059247937,0.0560994644823946,-0.690650633934667,0.29
0.0192964087855106,0.465017170923133,0.0530702724928596,-0.645584315554744,0.3
0.0198117930051072,0.458893102786891,0.0500065714264427,-0.601975555704306,0.31
0.0202964461308987,0.453102853553024,0.046924053731864,-0.559788437024718,0.32
0.0207502518964987,0.447644040981812,0.043837099388146,-0.518989945205868,0.33
0.021173231560731,0.44251304973613,0.0407588334583048,-0.479549726468548,0.34
0.0215655316464212,0.43770516756527,0.0377011836797433,-0.441439833430557,0.35
0.0219274122540788,0.433214710848092,0.0346749378517628,-0.404634469267542,0.36
0.0222592359473512,0.429035140415029,0.0316898008027241,-0.36910973600526,0.37
0.022561457205067,0.425159168466417,0.0287544507404325,-0.334843390346139,0.38
0.0228346124328157,0.421578857312988,0.0258765948093039,-0.301814608972565,0.39
0.0230793105253462,0.418285710582913,0.0230630236967992,-0.270003764399547,0.4
0.0232962239695777,0.415270757467976,0.0203196651495058,-0.239392211944509,0.41
0.0234860804767059,0.412524630518738,0.0176516362761268,-0.209962088105194,0.42
0.0236496551307391,0.410037637444009,0.0150632945305171,-0.181696120502863,0.43
0.0237877630398058,0.40779982732284,0.0125582872828179,-0.154577449502746,0.44
0.0239012524757233,0.405801051596773,0.0101395999007015,-0.12858946163114,0.45
0.0239909984866058,0.404031020175288,0.00780960227578155,-0.103715634944239,0.46
0.0240578969666966,0.402479352957755,0.00557009374239419,-0.0799393965506873,0.47
0.0241028591671448,0.401135627049755,0.00342234634724052,-0.0572439925355367,0.48
0.0241268066310752,0.39998941992999,0.00136714643883904,-0.0356123705688258,0.49
0.0241306665360463,0.399030348805386,-0.00059516544461291,-0.0150270755007662,0.5
0.0241153674268159,0.398248106376034,-0.00246465640148397,0.00452984175712207,0.51
0.0240818353212513,0.397632493217784,-0.00424176471143034,0.0230769017925121,0.52
0.0240309901722165,0.397173446978316,-0.00592726509552397,0.0406332604745775,0.53
0.0239637426683291,0.39686106857188,-0.00752223568195078,0.0572187588163688,0.54
0.0238809913566128,0.396685645548558,-0.00902802666131736,0.0728539588775584,0.55
0.0237836200702558,0.396637672805417,-0.010446230610089,0.0875601657909774,0.56
0.0236724956449266,0.39670787079928,-0.0117786544557449,0.101359436136528,0.57
0.0235484659073836,0.396887201413733,-0.013027293052845,0.114274573038255,0.58
0.0234123579204428,0.397166881626447,-0.0141943043353314,0.126329108518889,0.59
0.0232649764687311,0.397538395116663,-0.0152819860069968,0.137547273804844,0.6
0.0231071027700505,0.397993501946849,-0.0162927537291242,0.147953958427349,0.61
0.0229394933975959,0.398524246446893,-0.0172291207618006,0.157574659105942,0.62
0.0227628793987204,0.399122963423821,-0.0180936790133045,0.166435419523713,0.63
0.0225779655964026,0.399782282814786,-0.0188890814502413,0.174562762204744,0.64
0.0223854300600528,0.400495132896059,-0.0196180258197216,0.181983613779564,0.65
0.0221859237327851,0.401254742155812,-0.0202832396338183,0.188725224971983,0.66
0.0219800702027871,0.402054639933752,-0.0208874663657808,0.194815086659077,0.67
0.0217684656069232,0.402888655926015,-0.0214334528070012,0.20028084334579,0.68
0.0215516786552207,0.40375091864923,-0.0219239375334922,0.205150205357891,0.69
0.0213302507654001,0.404635852953298,-0.022361640430639,0.209450860994311,0.7
0.0211046962971209,0.405538176668165,-0.022749253225195,0.213210389795455,0.71
0.0208755028761255,0.406452896465756,-0.0230894309738908,0.216456177981802,0.72
0.020643131798963,0.407375303014227,-0.0233847844585992,0.21921533700119,0.73
0.0204080185094764,0.408300965497807,-0.0236378734387257,0.221514625997911,0.74
0.020170573138721,0.40922572557176,-0.0238512007123581,0.223380378886499,0.75
0.0199311811004657,0.41014569081832,-0.0240272069386966,0.224838436581721,0.76
0.0196902037348953,0.411057227765959,-0.0241682661753785,0.225914084807448,0.77
0.019447978993591,0.411956954530902,-0.0242766820855006,0.226631997783755,0.78
0.0192048221593114,0.412841733136507,-0.0243546847704066,0.22701618797635,0.79
0.0189610265945312,0.413708661562921,-0.024404428185645,0.227089961987021,0.8
0.0187168645131085,0.414555065576331,-0.0244279880988929,0.226875882569649,0.81
0.0184725877698636,0.415378490384086,-0.0244273605500746,0.22639573667404,0.82
0.0182284286632364,0.41617669215911,-0.0244044607753821,0.225670509349906,0.83
0.0179846007465675,0.416947629474162,-0.0243611225583973,0.224720363285298,0.84
0.0177412996439103,0.417689454683775,-0.0242990979730359,0.223564623707536,0.85
0.0174987038666223,0.41840050528909,-0.0242200574845571,0.222221768339132,0.86
0.0172569756273175,0.419079295318191,-0.0241255903764142,0.220709422075714,0.87
0.0170162616480742,0.419724506752106,-0.0240172054722464,0.219044356036254,0.88
0.0167766939600938,0.420334981024225,-0.0238963321238276,0.217242490627066,0.89
0.0165383906922882,0.420909710618552,-0.02376432143729,0.21531890225886,0.9
0.0163014568465446,0.42144783079,-0.0236224477114218,0.213287833359552,0.91
0.0160659850576711,0.421948611427744,-0.0234719100632959,0.211162705333533,0.92
0.015832056336265,0.422411449080576,-0.0233138342179137,0.208956134129762,0.93
0.0155997407929757,0.422835859161216,-0.0231492744399505,0.206679948095445,0.94
0.0153690983428407,0.423221468344574,-0.0229792155870486,0.20434520780856,0.95
0.0151401793885783,0.423568007173159,-0.0228045752654336,0.201962227600318,0.96
0.0149130254819015,0.423875302881021,-0.022626206069917,0.199540598497353,0.97
0.014687669962094,0.424143272445965,-0.0224448978915952,0.197089212332492,0.98
0.0144641385712472,0.424371915878157,-0.0222613802777594,0.194616286792009,0.99
0.0142424500457099,0.424561309751721,-0.0220763248296941,0.192129391186079,1
0.0140226166834357,0.424711600984504,-0.0218903476251565,0.189635472747343,1.01
0.0138046448870429,0.424823000869816,-0.0217040116534022,0.187140883280108,1.02
0.0135885356825176,0.424895779362687,-0.021517829251651,0.184651405999431,1.03
0.013374285213595,0.424930259621997,-0.0213322645328627,0.182172282415195,1.04
0.0131618852119526,0.424926812808707,-0.0211477357956344,0.179708239131225,1.05
0.0129513234434348,0.42488585313942,-0.0209646179079144,0.177263514443467,1.06
0.0127425841306098,0.42480783319353,-0.0207832446570783,0.174841884634284,1.07
0.0125356483520259,0.42469323947134,-0.0206039110597098,0.172446689872017,1.08
0.0123304944186014,0.424542588199768,-0.0204268756251861,0.17008085963618,1.09
0.0121270982276361,0.424356421381493,-0.020252362567884,0.167746937599011,1.1
0.0119254335949792,0.424135303082796,-0.0200805639634888,0.165447105903602,1.11
0.0117254725659341,0.423879815954714,-0.0199116418455265,0.163183208787639,1.12
0.0115271857055124,0.423590557981679,-0.0197457302388213,0.16095677550981,1.13
0.0113305423686826,0.423268139451311,-0.0195829371271395,0.158769042543304,1.14
0.011135510951283,0.422913180138686,-0.0194233463527894,0.156620975007596,1.15
0.0109420591222869,0.422526306698062,-0.0192670194464274,0.154513287315845,1.16
0.0107501540381259,0.422108150254774,-0.0191139973857592,0.152446463020894,1.17
0.010559762539786,0.421659344189804,-0.0189643022822372,0.150420773847929,1.18
0.0103708513333986,0.421180522109361,-0.0188179389952261,0.148436297906562,1.19
0.0101833871550552,0.420672315991683,-0.0186748966734576,0.146492937079271,1.2
0.0099973369205684,0.420135354503197,-0.0185351502239057,0.14459043358699,1.21
0.00981266786090635,0.419570261476151,-0.0183986617085032,0.142728385736036,1.22
0.00962934764401696,0.418977654539821,-0.0182653816693762,0.140906262853711,1.23
0.00944734448375253,0.418358143897424,-0.018135250383509,0.139123419422625,1.24
0.00926662723659519,0.417712331240969,-0.0180081990479589,0.137379108426298,1.25
0.00908716548687077,0.417040808796327,-0.0178841508969253,0.135672493920763,1.26
0.00890892962112542,0.416344158490962,-0.0177630222521437,0.134002662848813,1.27
0.00873189089232362,0.415622951236888,-0.0176447235082161,0.132368636115224,1.28
0.00855602147450947,0.414877746321576,-0.0175291600546134,0.13076937894272,1.29
0.00838129450855545,0.414109090899745,-0.0174162331361917,0.129203810529689,1.3
0.00820768413960372,0.413317519579122,-0.0173058406541536,0.1276708130317,1.31
0.00803516554678567,0.412503554093516,-0.0171978779094562,0.126169239889717,1.32
0.00786371496578475,0.411667703056724,-0.0170922382907286,0.124697923528592,1.33
0.00769330970478708,0.410810461791054,-0.0169888139088045,0.123255682449939,1.34
0.00752392815434302,0.409932312224465,-0.0168874961800079,0.121841327743876,1.35
0.00735554979164123,0.409033722850566,-0.0167881763603506,0.12045366904436,1.36
0.00718815517967543,0.408115148745978,-0.0166907460328086,0.119091519952956,1.37
0.00702172596176215,0.407177031639782,-0.0165950975498474,0.117753702955886,1.38
0.00685624485184614,0.406219800030061,-0.0165011244333533,0.116439053859115,1.39
0.00669169562100881,0.405243869342758,-0.0164087217341138,0.115146425766019,1.4
0.00652806308057341,0.404249642128336,-0.0163177863529653,0.113874692621929,1.41
0.00636533306218012,0.403237508291969,-0.0162282173256935,0.112622752349454,1.42
0.00620349239518296,0.402207845353242,-0.0161399160737389,0.111389529598099,1.43
0.00604252888170069,0.401161018731543,-0.0160527866227144,0.110173978131185,1.44
0.00588243126963363,0.40009738205361,-0.0159667357906972,0.108975082872557,1.45
0.0057231892239391,0.399017277479879,-0.0158816733482084,0.107791861634972,1.46
0.00556479329643938,0.39792103604653,-0.0157975121517364,0.10662336655144,1.47
0.00540723489441766,0.396808978020328,-0.0157141682526077,0.105468685230137,1.48
0.00525050624823989,0.395681413263558,-0.0156315609829469,0.104326941652828,1.49
0.00509460037822311,0.394538641606579,-0.0155496130204081,0.103197296836008,1.5
0.00493951106095458,0.393380953225679,-0.0154682504332982,0.102078949273286,1.51
0.00478523279524986,0.392208629024136,-0.0153874027076467,0.100971135176757,1.52
0.00463176076792304,0.391021941014538,-0.0153070027577169,0.0998731285343872,1.53
0.00447909081952754,0.389821152700598,-0.0152269869213827,0.0987842409996794,1.54
0.00432721941021194,0.388606519456874,-0.0151472949417369,0.0977038216291298,1.55
0.00417614358582212,0.387378288904924,-0.0150678699362273,0.0966312564822433,1.56
0.0040258609443682,0.386136701284617,-0.0149886583545557,0.0955659680981253,1.57
0.00387636960296287,0.384881989819431,-0.0149096099265103,0.0945074148619311,1.58
0.00372766816532613,0.383614381074699,-0.0148306776008388,0.0934550902737308,1.59
0.00357975568994089,0.382334095307909,-0.0147518174762097,0.0924085221316254,1.6
0.00343263165893361,0.381041346810265,-0.0146729887252466,0.091367271640258,1.61
0.00328629594774456,0.379736344238824,-0.0145941535125621,0.0903309324551711,1.62
0.00314074879564344,0.378419290938641,-0.0145152769076617,0.0892991296727999,1.63
0.00299599077713749,0.377090385254426,-0.0144363267935291,0.0882715187752393,1.64
0.00285202277431159,0.375749820831344,-0.0143572737716512,0.0872477845382946,1.65
0.00270884595013238,0.374397786904613,-0.01427809106419,0.086227639910716,1.66
0.00256646172274166,0.373034468577707,-0.0141987544139546,0.0852108248719333,1.67
0.00242487174075799,0.371660047088963,-0.0141192419827788,0.0841971052750368,1.68
0.00228407785959978,0.370274700066523,-0.0140395342488638,0.0831862716812119,1.69
0.00214408211883747,0.368878601771555,-0.013959613903598,0.0821781381913124,1.7
0.00200488672057786,0.36747192332977,-0.0138794657483234,0.0811725412797588,1.71
0.00186649400887886,0.366054832951311,-0.0137990765914772,0.080169338635476,1.72
0.00172890645018899,0.364627496139107,-0.0137184351464964,0.0791684080141293,1.73
0.00159212661480232,0.363190075885853,-0.0136375319308377,0.0781696461054902,1.74
0.001456157159316,0.361742732859792,-0.0135563591664252,0.0771729674193554,1.75
0.00132100081007483,0.360285625579522,-0.0134749106818102,0.0761783031930589,1.76
0.00118666034758433,0.358818910578066,-0.0133931818162902,0.0751856003232498,1.77
0.00105313859187184,0.35734274255648,-0.0133111693262073,0.0741948203242732,1.78
0.000920438388772721,0.355857274527276,-0.0132288712936161,0.0732059383151628,1.79
0.000788562597117213,0.354362657947981,-0.0131462870374855,0.0722189420369594,1.8
0.000657514076791919,0.352859042845149,-0.0130634170275734,0.0712338309017852,1.81
0.000527295677648601,0.351346577929151,-0.0129802628010903,0.0702506150748427,1.82
0.000397910229231924,0.349825410700097,-0.0128968268822451,0.0692693145902639,1.83
0.000269360531296958,0.348295687545243,-0.0128131127047479,0.0682899585015121,1.84
0.000141649345086596,0.346757553828224,-0.0127291245373245,0.0673125840668258,1.85
1.48E-05,0.345211153970484,-0.0126448674122803,0.0663372359700098,1.86
-0.000111246687008511,0.343656631525265,-0.0125603470571364,0.0653639655766962,1.87
-0.000236426271440918,0.342094129244505,-0.012475569829345,0.0643928302260438,1.88
-0.00036075683385803,0.340523789139006,-0.0123905426540774,0.0634238925576938,1.89
-0.000484235911953762,0.338945752532236,-0.012305272965069,0.0624572198736717,1.9
-0.000606861120021557,0.337360160108101,-0.0122197686484901,0.0614928835348047,1.91
-0.000728630153213031,0.335767151953042,-0.0121340379898047,0.0605309583911188,1.92
-0.000849540791279909,0.33416686759279,-0.0120480896235708,0.0595715222455829,1.93
-0.00096959090182839,0.332559446024112,-0.0119619324861253,0.0586146553504896,1.94
-0.00108877844311448,0.33094502574187,-0.0118755757710919,0.0576604399356818,1.95
-0.00120710146640816,0.329323744761705,-0.0117890288876441,0.05670895976778,1.96
-0.00132455811795362,0.327695740638654,-0.0117023014214494,0.0557602997395037,1.97
-0.00144114664055195,0.326061150481995,-0.0116154030982166,0.0548145454881408,1.98
-0.00155686537479186,0.324420110966593,-0.0115283437497645,0.0538717830421794,1.99
-0.00167171275995332,0.322772758341043,-0.0114411332825274,0.052932098495088,2
-0.00178568733460801,0.321119228432849,-0.0113537816484106,0.0519955777052058,2.01
-0.00189878773693959,0.319459656650909,-0.0112662988179049,0.0510623060206917,2.02
-0.00201101270480597,0.317794177985543,-0.0111786947553725,0.0501323680284665,2.03
-0.00212236107556488,0.316122927006285,-0.0110909793964099,0.0492058473260812,2.04
-0.00223283178568293,0.314446037857676,-0.0110031626271985,0.0482828263154429,2.05
-0.00234242387014767,0.312763644253246,-0.0109152542657496,0.0473633860173339,2.06
-0.00245113646170118,0.311075879467908,-0.0108272640449534,0.0464476059056686,2.07
-0.00255896878991265,0.309382876328917,-0.0107392015973404,0.045535563760446,2.08
-0.00266592018010668,0.307684767205611,-0.0106510764414664,0.0446273355383694,2.09
-0.00277199005216318,0.30598168399806,-0.0105628979698329,0.0437229952601242,2.1
-0.00287717791920362,0.304273758124811,-0.0104746754382551,0.0428226149133265,2.11
-0.00298148338617786,0.302561120509854,-0.0103864179565935,0.041926264370176,2.12
-0.00308490614836466,0.300843901568955,-0.010298134480766,0.0410340113188759,2.13
-0.00318744598979828,0.299122231195485,-0.0102098338059587,0.0401459212079037,2.14
-0.00328910278163287,0.297396238745852,-0.0101215245609583,0.0392620572022515,2.15
-0.0033898764804553,0.295666053024657,-0.0100332152035285,0.0383824801507783,2.16
-0.00348976712655673,0.293931802269668,-0.0099449140167572,0.0375072485638511,2.17
-0.00358877484217204,0.292193614136711,-0.0098566291063038,0.0366364186004797,2.18
-0.00368689982969594,0.290451615684551,-0.00976836839847704,0.0357700440641836,2.19
-0.00378414236988372,0.288705933359855,-0.00968013963907851,0.0349081764068615,2.2
-0.00388050282004385,0.286956692982297,-0.00959195039294826,0.034050864739963,2.21
-0.00397598161222935,0.285204019729875,-0.00950380804415209,0.0331981558522995,2.22
-0.00407057925143388,0.283448038124494,-0.00941571979675307,0.0323500942338574,2.23
-0.00416429631379821,0.281688872017863,-0.00932769267611221,0.0315067221050129,2.24
-0.0042571334448321,0.279926644577759,-0.00923973353066617,0.0306680794505775,2.25
-0.00434909135765609,0.278161478274695,-0.00915184903413242,0.0298342040581339,2.26
-0.00444017083126723,0.276393494869019,-0.00906404568809505,0.0290051315601517,2.27
-0.00453037270883234,0.274622815398491,-0.00897632982492694,0.0281808954794066,2.28
-0.004619697896012,0.272849560166343,-0.00888870761100654,0.027361527277248,2.29
-0.00470814735931799,0.271073848729855,-0.00880118505019021,0.026547056404297,2.3
-0.00479572212450645,0.269295799889474,-0.00871376798750318,0.025737510353177,2.31
-0.00488242327500904,0.267515531678458,-0.00862646211301485,0.0249329147129114,2.32
-0.00496825195040345,0.265733161353091,-0.00853927296586641,0.0241332932246442,2.33
-0.00505320934492488,0.263948805383456,-0.00845220593842074,0.0233386678383686,2.34
-0.00513729670601952,0.26216257944477,-0.00836526628050709,0.0225490587703684,2.35
-0.00522051533294073,0.260374598409289,-0.00827845910373486,0.0217644845611038,2.36
-0.00530286657538867,0.258584976338784,-0.00819178938585283,0.0209849621332927,2.37
-0.0053843518321936,0.256793826477573,-0.00810526197513216,0.0202105068499612,2.38
-0.00546497255004302,0.255001261246113,-0.00801888159475332,0.0194411325722562,2.39
-0.00554473022225268,0.25320739223515,-0.00793265284717887,0.0186768517168336,2.4
-0.00562362638758105,0.251412330200401,-0.00784658021849554,0.0179176753126516,2.41
-0.00570166262908709,0.249616185057773,-0.00776066808271089,0.0171636130570188,2.42
-0.0057788405730306,0.247819065879105,-0.00767492070599116,0.0164146733707609,2.43
-0.0058551618878147,0.246021080888415,-0.00758934225082846,0.0156708634523854,2.44
-0.00593062828296947,0.24422233745864,-0.00750393678012659,0.0149321893311401,2.45
-0.00600524150817609,0.242422942108864,-0.00741870826119652,0.0141986559188734,2.46
-0.00607900335233034,0.240623000501999,-0.00733366056965309,0.0134702670606172,2.47
