x,theta,dx,dtheta,t
0,0.7,0,0,0
6.23E-05,0.699185708904257,0.0122508488368565,-0.160757267078535,0.01
0.000240936004689414,0.696853897790411,0.0232773194872828,-0.308409455953936,0.02
0.000523979138799713,0.693168149937002,0.0331429914812982,-0.445465467875514,0.03
0.000900134879868486,0.688286627142044,0.0419104216448165,-0.573627573249577,0.04
0.0013587223088627,0.682360681649286,0.0496403284939192,-0.694101318180482,0.05
0.00188968559087682,0.675533288775177,0.0563932000944078,-0.8077924485872,0.06
0.00248356671744496,0.667938451455746,0.0622291849728972,-0.915409944669899,0.07
0.00313146962211314,0.659701142125154,0.0672063094841579,-1.01749286100213,0.08
0.00382506010370684,0.650936890523314,0.0713804736333981,-1.11442639811772,0.09
0.0045565658263309,0.641751590860935,0.0748054510762636,-1.20641172994765,0.1
0.0053187763193696,0.632241484956326,0.0775328891188378,-1.29333151249552,0.11
0.00610499333042966,0.622493883470583,0.0796126291845353,-1.37428786274976,0.12
0.00690893045940766,0.61258850276499,0.0810942741223862,-1.44572980159703,0.13
0.00772491943321469,0.602595234561661,0.0820254382519203,-1.49137356570655,0.14
0.00854771235434444,0.592576954725941,0.0824515208688977,-1.47550105334841,0.15
0.00937246334556137,0.58259001932806,0.0824157647332589,-1.42041059439416,0.16
0.0101947285499007,0.572684538545879,0.0819592560691245,-1.35695677424431,0.17
0.0110104661306683,0.562904647468405,0.0811209245647956,-1.29264261649766,0.18
0.0118160210922381,0.553288946600251,0.0799375851956121,-1.22930684011953,0.19
0.0126079819584923,0.543872400169143,0.0784448256385159,-1.1675376999109,0.2
0.0133835532253592,0.534682092989003,0.076676531473278,-1.10753056113708,0.21
0.0141402752647307,0.525740855075855,0.0746646216584432,-1.04933467042911,0.22
0.0148759207836397,0.517068636571242,0.0724391879174838,-0.992942134631987,0.23
0.0155884948242601,0.508682620104145,0.0700284947387994,-0.938319506934203,0.24
0.016276234763907,0.500597319890916,0.0674589793757168,-0.885421589591274,0.25
0.0169376103150368,0.492824668142542,0.0647552518464902,-0.834197830268909,0.26
0.0175713235252466,0.485374089487802,0.061940094934301,-0.784595319667383,0.27
0.0181763023795001,0.478252636252107,0.0590344943724509,-0.736560599098255,0.28
0.0187514528444293,0.471467790395063,0.0560592825974213,-0.690065092278952,0.29
0.0192962888659161,0.465020352560291,0.0530330843514133,-0.645068044389256,0.3
0.0198106596082603,0.458907670778651,0.0499724087208875,-0.601521950616735,0.31
0.0202944813839189,0.45312667897621,0.0468926510249972,-0.559387521761262,0.32
0.0207477376535058,0.447673887328878,0.0438080928155888,-0.518631633013855,0.33
0.0211704790257919,0.442545372409616,0.0407319018772016,-0.479225740455157,0.34
0.021562823257705,0.437736767173813,0.0376761322270674,-0.441144604019661,0.35
0.0219249552543299,0.433243250821653,0.0346517241151115,-0.404365213750994,0.36
0.0222571270689083,0.429059538570042,0.0316685040239515,-0.368865851624994,0.37
0.0225596579028388,0.42517987136106,0.0287351846688981,-0.334625243595607,0.38
0.022832934105677,0.421598005528889,0.0258593649979551,-0.301621771113506,0.39
0.0230773663201857,0.418307650555502,0.0230480453841795,-0.269838614613573,0.4
0.0232934188191339,0.415302014547055,0.0203093130530104,-0.239281497762509,0.41
0.023482113166816,0.4125684795649,0.0176472197385888,-0.209919498356702,0.42
0.0236445060371846,0.410094270766325,0.015064879170726,-0.181721058931325,0.43
0.0237816184641754,0.407867191084974,0.0125650744841308,-0.1546598378525,0.44
0.0238944358417074,0.405875601535907,0.010150258218409,-0.128713682629992,0.45
0.0239839079236823,0.404108403838907,0.0078225523180641,-0.103863754847699,0.46
0.0240509488239853,0.402555025086657,0.00558374813249658,-0.0800937720045908,0.47
0.0240964370164845,0.401205404220475,0.00343530641600441,-0.057389340373728,0.48
0.0241212153350313,0.400049980107187,0.00137835732778277,-0.0357373595091407,0.49
0.02412609097346,0.399079681037282,-0.000586299568075793,-0.0151254839351746,0.5
0.0241118354855882,0.398285915487387,-0.00245819530258148,0.00445836870480112,0.51
0.0240791847852166,0.397660564009844,-0.00423719150184713,0.0230264708745369,0.52
0.0240288391461288,0.39719597212936,-0.00592348038708833,0.0405917053332855,0.53
0.0239615820754384,0.396883627750913,-0.00751772269614193,0.0571694766748751,0.54
0.023878676205209,0.396709796191468,-0.00902186686584258,0.0727869644048605,0.55
0.0237811245322054,0.396663689475917,-0.0104382016660339,0.0874730110537795,0.56
0.0236698511830289,0.396735420091921,-0.0117689987764208,0.101254696798465,0.57
0.0235457408373293,0.396915557539972,-0.013016533181201,0.114157861561592,0.58
0.0234096387278051,0.397195123934209,-0.0141830831690649,0.126207355054319,0.59
0.0232623506402036,0.397565590278591,-0.0152709303331955,0.137427253604018,0.6
0.0231046429133206,0.398018873347427,-0.0162823595712686,0.14784104793009,0.61
0.0229372424390009,0.398547333106493,-0.0172196590854529,0.157471805294178,0.62
0.0227608366621378,0.399143770617109,-0.0180851203824095,0.166342308880066,0.63
0.0225760735806733,0.399801426371005,-0.0188810382732924,0.174475176817225,0.64
0.02238357784501,0.400513801471283,-0.0196097455699657,0.181893337923031,0.65
0.0221840604566011,0.401273462959478,-0.0202741001154972,0.188625426470449,0.66
0.0219781828511981,0.402073545592463,-0.0208772667314834,0.194703532104174,0.67
0.0217665617581991,0.402907669536747,-0.0214223026086807,0.20015870705598,0.68
0.0215497811213831,0.403769806429428,-0.0219121516520059,0.205020929265207,0.69
0.0213283920989095,0.404654279171716,-0.0223496444805365,0.209319121308158,0.7
0.0211029130633182,0.405555761927304,-0.0227374984275107,0.213081161201986,0.71
0.0208738296015297,0.406469280298654,-0.0230783175403273,0.216333886689377,0.72
0.020641594514845,0.407390211655805,-0.0233745925805459,0.219103094377137,0.73
0.0204066278189458,0.408314285593806,-0.0236287010238865,0.221413534896567,0.74
0.0201693167438941,0.409237584496313,-0.0238429070602298,0.223288905072638,0.75
0.0199300157341327,0.410156544184263,-0.0240193615936175,0.224751837929483,0.76
0.0196890926531457,0.411067445959887,-0.0241602513694699,0.225825520585833,0.77
0.0194469277605489,0.411966449305802,-0.024268119089831,0.226537249425675,0.78
0.0192038312438175,0.412850489805172,-0.0243454396919733,0.226913762325573,0.79
0.0189600941408799,0.413716704541302,-0.0243945609007052,0.226980526771969,0.8
0.0187159887334941,0.414562428286081,-0.0244177037560776,0.226761727484548,0.81
0.0184717685472475,0.415385194083615,-0.0244169626133847,0.226280249814726,0.82
0.0182276683515566,0.416182733842187,-0.0243943051431633,0.225557664647538,0.83
0.0179839041596676,0.41695297892677,-0.0243515723311928,0.224614214853806,0.84
0.0177406732286557,0.417694060744748,-0.024290478478496,0.223468803288626,0.85
0.0174981540594256,0.41840431131794,-0.0242126112013379,0.222138982293935,0.86
0.0172565063967115,0.419082263834534,-0.0241194314312267,0.220640944635357,0.87
0.0170158712290765,0.41972665317505,-0.0240122734149134,0.218989515784966,0.88
0.0167763707889136,0.42033641640701,-0.0238923447143917,0.217198147450414,0.89
0.0165381098456236,0.420910679088903,-0.0237607326069876,0.215278982739758,0.9
0.0163012562129594,0.421447881169371,-0.0236189053124785,0.213248386039371,0.91
0.0160659192973284,0.421947120215688,-0.023468317170814,0.211122615497532,0.92
0.0158321491479652,0.422408144827574,-0.0233101376885837,0.208914797367227,0.93
0.0155999919240795,0.422830743687974,-0.0231454654114277,0.206637270136529,0.94
0.0153694898948556,0.423214745650663,-0.0229753279240371,0.204301581885233,0.95
0.0151406814394533,0.423560019817171,-0.0228006818501537,0.201918488300977,0.96
0.0149136010470071,0.423866475602785,-0.02262241285257,0.199497951271119,0.97
0.0146882793166265,0.424134062791424,-0.0224413356331294,0.197049137973116,0.98
0.0144647429573962,0.424362771579228,-0.0222581939327262,0.194580420393185,0.99
0.0142430147883757,0.424552632606752,-0.0220736605313051,0.19209937521033,1
0.0140231137385995,0.424703716979671,-0.021888337247862,0.189612783990215,1.01
0.0138050548470772,0.424816136277996,-0.0217027549404434,0.187126633640633,1.02
0.0135888492627935,0.4248900425538,-0.0215173735061465,0.184646117087296,1.03
0.0133745042447078,0.424925628317508,-0.0213325818811196,0.182175634135307,1.04
0.0131620231617547,0.424923126512873,-0.0211486980405614,0.179718792487824,1.05
0.0129514054928438,0.424882810480776,-0.0209659689987216,0.177278408899084,1.06
0.0127426578804164,0.424804873813237,-0.0207846431111366,0.174857305902742,1.07
0.012535898716859,0.424688303873708,-0.0206058021957757,0.172467475277964,1.08
0.0123310924996097,0.424533779676432,-0.0204297984505854,0.170112889496866,1.09
0.0121281549342806,0.424342511135466,-0.0202566645722322,0.167793999147779,1.1
0.0119270070981506,0.424115647825381,-0.0200864299144269,0.165511209589724,1.11
0.0117275754401657,0.423854278816011,-0.0199191204879248,0.163264881271626,1.12
0.0115297917809386,0.423559432527333,-0.0197547589605254,0.161055330065611,1.13
0.0113335933127493,0.423232076603542,-0.0195933646570726,0.158882827611808,1.14
0.0111389225995443,0.422873117805409,-0.0194349535594548,0.156747601672239,1.15
0.0109457275769374,0.422483401920029,-0.0192795383066044,0.154649836491645,1.16
0.010753961552209,0.422063713687134,-0.0191271281944985,0.152589673163234,1.17
0.0105635832043069,0.421614776741129,-0.0189777291761584,0.150567209997586,1.18
0.0103745565838453,0.4211372535681,-0.0188313438616498,0.148582502893095,1.19
0.0101868511131056,0.42063174547705,-0.0186879715180828,0.146635565706553,1.2
0.0100004415860363,0.420098792584683,-0.0185476080696116,0.144726370622629,1.21
0.00981530816825244,0.419538873813092,-0.0184102460974352,0.142854848521191,1.22
0.00963143639703629,0.418952406899752,-0.0182758748397965,0.14102088934158,1.23
0.00944881718133695,0.418339748419287,-0.018144480191983,0.139224342443103,1.24
0.00926744680177046,0.417701193816495,-0.0180160447063266,0.137465016961177,1.25
0.0090873269106198,0.417036977450198,-0.0178905475922034,0.135742682158695,1.26
0.00890846453183489,0.41634727264752,-0.0177679647160339,0.134057067772342,1.27
0.00873087206103256,0.415632191768229,-0.017648268601283,0.132407864353702,1.28
0.00855456726549658,0.414891786278872,-0.0175314284284599,0.130794723605164,1.29
0.00837957328417768,0.414126046836426,-0.0174174100351182,0.129217258710725,1.3
0.00820590588331568,0.413335046774494,-0.0173061798379378,0.127675091207777,1.31
0.00803341121249624,0.412520763277057,-0.0171976989533978,0.126167830978111,1.32
0.00786200959209905,0.411684329292199,-0.0170917914770853,0.124693564052866,1.33
0.00769166973686243,0.410826331615462,-0.0169882643304598,0.123250176341716,1.34
0.00752236247131446,0.40994733273853,-0.0168869360414397,0.121835682186676,1.35
0.00735406072977298,0.409047870840717,-0.0167876367444028,0.120448224179563,1.36
0.00718673955634561,0.408128459785313,-0.0166902081801857,0.119086072971716,1.37
0.00702037610492971,0.407189589120533,-0.0165945036960843,0.117747627075754,1.38
0.00685494963921241,0.406231724084831,-0.0165003882458536,0.116431412659254,1.39
0.00669044153267062,0.405255305616334,-0.0164077383897076,0.115136083330358,1.4
0.00652683526857101,0.404260750366189,-0.0163164422943195,0.113860419915399,1.41
0.00636411643997,0.403248450715585,-0.0162263997328216,0.112603330228704,1.42
0.00620227274971377,0.402218774796257,-0.0161375220848053,0.111363848834806,1.43
0.0060412940104383,0.401172066514267,-0.016049732336321,0.110141136803325,1.44
0.00588117214456928,0.400108645576872,-0.0159629650798785,0.108934481456848,1.45
0.00572190118432223,0.399028807522309,-0.0158771665144464,0.107743296112117,1.46
0.00556347727170237,0.397932823752307,-0.0157922944454525,0.1065671198149,1.47
0.00540589865850472,0.396820941567187,-0.0157083182847838,0.105405617068889,1.48
0.00524916570631406,0.395693384203387,-0.0156252190507864,0.104258577559003,1.49
0.00509328088650492,0.394550350873265,-0.0155429893682653,0.103125915869449,1.5
0.00493824696507463,0.393392036461256,-0.0154616253265245,0.102007583354746,1.51
0.00478403136740426,0.392219016134674,-0.0153809475593073,0.100901638004262,1.52
0.00463061758092421,0.391031686923694,-0.0153008058180302,0.0998064532595806,1.53
0.00447800261805422,0.389830297790179,-0.0152211085240614,0.0987210372210446,1.54
0.0043261838334051,0.388615092794414,-0.0151417702214312,0.0976444655286005,1.55
0.00417515892377872,0.387386311093148,-0.0150627115768327,0.096575881195085,1.56
0.00402492592816803,0.386144186938392,-0.0149838593796213,0.0955144944366654,1.57
0.00387548322775703,0.384888949676941,-0.014905146541815,0.0944595825005407,1.58
0.00372682954592079,0.383620823750605,-0.0148265120980943,0.0934104894900283,1.59
0.00357896394822543,0.382340028697102,-0.0147479012058021,0.0923666261871836,1.6
0.00343188584242817,0.38104677915161,-0.0146692651449439,0.091327469873114,1.61
0.00328559497847725,0.379741284848932,-0.0145905613181877,0.0902925641461657,1.62
0.003140091448512,0.378423750626255,-0.0145117532508637,0.0892615187381741,1.63
0.00299537568686282,0.377094376426479,-0.014432810590965,0.08823400932898,1.64
0.00285144847005115,0.375753357302097,-0.014353709109147,0.0872097773594222,1.65
0.00270831091678952,0.374400883419581,-0.0142744306987276,0.0861886298430268,1.66
0.00256596448798151,0.373037140064276,-0.0141949633756872,0.0851704391766163,1.67
0.00242441098672176,0.371662307645758,-0.0141153012786687,0.0841551429500691,1.68
0.00228365255829598,0.370276561703646,-0.0140354446689775,0.0831427437554617,1.69
0.00214369169018096,0.368880072913838,-0.0139553999305814,0.0821333089958276,1.7
0.00200453121204453,0.36747300709515,-0.0138751795701109,0.0811269706937668,1.71
0.0018661742957456,0.366055525216345,-0.0137948022168587,0.080123925300141,1.72
0.00172862445533413,0.364627783403514,-0.0137142926227804,0.0791244335030831,1.73
0.00159187767253845,0.363190015785349,-0.0136336287861582,0.0781282560518965,1.74
0.00145591189994571,0.361742642941322,-0.0135526413510552,0.0771335826559862,1.75
0.00132073370305076,0.360285780900631,-0.0134713206328733,0.0761403076229469,1.76
0.00118635189460126,0.358819520790631,-0.0133896738205332,0.075148504729698,1.77
0.0010527748109144,0.357343957574845,-0.0133077081808325,0.0741582479681732,1.78
0.000920010311876902,0.355859190039095,-0.013225431058446,0.0731696115294813,1.79
0.000788065780945041,0.354365320777694,-0.0131428498759252,0.0721826697884189,1.8
0.000656948125144625,0.352862456179731,-0.0130599721336988,0.0711974972883472,1.81
0.000526663775071,0.351350706415444,-0.0129768054100725,0.070214168726443,1.82
0.000397218684889053,0.3498301854227,-0.012893357361229,0.0692327589393324,1.83
0.000268618332333211,0.348301010893589,-0.0128096357212279,0.0682533428891189,1.84
0.00014086771870744,0.346763304261137,-0.0127256483020058,0.067275995649813,1.85
1.40E-05,0.345217190686168,-0.0126414029933764,0.066300792394173,1.86
-0.000112066668690327,0.343662799044298,-0.0125569077630303,0.0653278083809646,1.87
-0.000237242822006696,0.342100261913092,-0.0124721706565351,0.064357118942648,1.88
-0.000361553995481736,0.340529715559384,-0.0123871997973355,0.0633887994734981,1.89
-0.000484997569963783,0.338951299926779,-0.0123020033867531,0.0624229254181671,1.9
-0.000607571402731637,0.337365158623331,-0.0122165897039864,0.0614595722606931,1.91
-0.000729273827494551,0.335771438909424,-0.0121309671061112,0.0604988155139637,1.92
-0.000850103654392249,0.334170291685856,-0.01204514402808,0.0595407307096379,1.93
-0.000970060169994908,0.332561871482135,-0.0119591289827224,0.0585853933885316,1.94
-0.00108914313730317,0.330946336445,-0.011872930560745,0.057632879091473,1.95
-0.00120735279574813,0.329323848327178,-0.0117865574307315,0.0566832633506306,1.96
-0.00132468986119136,0.327694572476372,-0.0117000183391423,0.0557366216813175,1.97
-0.00144115552592486,0.326058677824513,-0.0116133221103151,0.0547930295742759,1.98
-0.00155675145867114,0.324416336877254,-0.0115264776464645,0.0538525624884452,1.99
-0.00167147980458312,0.322767725703745,-0.011439493927682,0.0529152958442145,2
-0.00178534318524422,0.321113023926672,-0.0113523800119362,0.0519813050171625,2.01
-0.00189834469866828,0.319452414712582,-0.0112651450350727,0.0510506653322865,2.02
-0.00201048791929965,0.317786084762494,-0.011177798210814,0.0501234520587211,2.03
-0.0021217768980131,0.316114224302811,-0.0110903488307597,0.0491997404049474,2.04
-0.00223221616211388,0.314437027076532,-0.0110028062643863,0.048279605514493,2.05
-0.00234180487611789,0.312754626488157,-0.0109151618886987,0.0473629350812433,2.06
-0.00245052326341874,0.311066948489075,-0.0108273639810151,0.0464491712252995,2.07
-0.00255836737747613,0.309374092148315,-0.0107394288131648,0.0455384628716778,2.08
-0.00266533533246874,0.307676177583387,-0.0106513783067468,0.0446310166395313,2.09
-0.00277142541642972,0.305973325259328,-0.0105632333028778,0.0437270269755844,2.1
-0.00287663609124668,0.304265655988618,-0.0104750135621924,0.0428266761960785,2.11
-0.00298096599266172,0.302553290931209,-0.0103867377648431,0.0419301345285039,2.12
-0.00308441393027138,0.300836351594665,-0.0102984235105002,0.0410375601530856,2.13
-0.00318697888752672,0.299114959834428,-0.010210087318352,0.0401490992439909,2.14
-0.00328866002173323,0.297389237854178,-0.0101217446271045,0.0392648860102319,2.15
-0.00338945666405089,0.29565930820632,-0.0100334097949816,0.038385042736232,2.16
-0.00348936831949415,0.293925293792576,-0.00994509609972507,0.0375096798220328,2.17
-0.00358839466693193,0.292187317864681,-0.00985681573859449,0.036638895823113,2.18
-0.00368653555908761,0.290445504025198,-0.00976857982836738,0.0357727774897975,2.19
-0.00378379102253907,0.288699976228426,-0.00968039840533905,0.0349113998062316,2.2
-0.00388016125771863,0.286950858781428,-0.0095922804253227,0.0340548260289005,2.21
-0.0039756466389131,0.285198276345151,-0.00950423376364937,0.0332031077246711,2.22
-0.00407024771426376,0.283442353935656,-0.00941626521516798,0.0323562848083381,2.23
-0.00416396520576635,0.28168321692545,-0.00932838049424529,0.0315143855796539,2.24
-0.0042568000092711,0.279920991044911,-0.00924058423476591,0.0306774267598265,2.25
-0.00434875319448271,0.278155802383821,-0.00915287999013231,0.0298454135274662,2.26
-0.00443982600496032,0.276387777392994,-0.00906527023326484,0.0290183395539668,2.27
-0.00453001985811758,0.274617042885993,-0.00897775635660167,0.0281961870383054,2.28
-0.00461933634522259,0.272843726040956,-0.00889033867209887,0.0273789267412458,2.29
-0.00470777723139794,0.271067954402498,-0.00880301641123031,0.0265665180189338,2.3
-0.00479534445562067,0.269289855883725,-0.00871578772498778,0.0257589088558686,2.31
-0.0048820401307223,0.267509558768316,-0.00862864968388089,0.0249560358972413,2.32
-0.00496786654338883,0.265727191712714,-0.0085415982779371,0.0241578244806262,2.33
-0.00505282615416072,0.263942883748393,-0.00845462841670176,0.0233641886670163,2.34
-0.00513692159743291,0.262156764284214,-0.00836773392923803,0.0225750312711914,2.35
-0.0052201556814548,0.260368963108864,-0.00828090756412699,0.0217902438914094,2.36
-0.00530252918299788,0.258579588015745,-0.00819415262498516,0.0210098275881499,2.37
-0.0053840333887164,0.256788649436841,-0.00810752639517863,0.0202343422075612,2.38
-0.00546466884484591,0.25499625087583,-0.00802104303226373,0.0194638989264502,2.39
-0.00554443769770242,0.253202510793857,-0.00793470844589238,0.0186985231314336,2.4
-0.00562334209378437,0.251407546354283,-0.00784852836982836,0.0179382382163962,2.41
-0.00570138417977262,0.249611473429028,-0.00776250836194735,0.0171830655962618,2.42
-0.00577856610253049,0.247814406604906,-0.0076766538042369,0.0164330247205476,2.43
-0.00585489000910374,0.246016459189926,-0.00759096990279644,0.015688133086704,2.44
-0.00593035804672057,0.244217743219578,-0.00750546168783728,0.0149484062532329,2.45
-0.0060049723627916,0.242418369463084,-0.00742013401368262,0.0142138578525855,2.46
-0.00607873510490992,0.240618447429623,-0.00733499155876752,0.0134844996038354,2.47
